# scan = 826
# date = 2/22/2025
# time = 9:18:24 PM
# proposal = 33477
# experiment = Commissioning and enabling the 4-circle capability at VERITAS
# experiment_number = 1046
# command = scan omega -18 -21.6 0.15
# builtin_command = scan omega -18 -21.6 0.15
# users = Feng Ye, Mike McDowell, Jiasen Guo, Adam Aczel, Kaleb Burrage, Wei Tian, Bing Li, Zachary Morgan
# local_contact = Wei Tian
# scan_title = MnWO4, (0.25 -1.5 0.5) & (0.216 -1.5 0.458) OP, at T = 13.3796 K, warming up
# monochromator = PG002
# analyzer = Pg002
# sense = +-+
# collimation = 40-40-40-80
# samplename = La2Ni7, MnWO4
# sampletype = crystal
# samplemosaic = 30.000000
# latticeconstants = 4.824069,5.755582,4.999231,89.932854,88.939129,90.018476
# ubmatrix = 0.016958,0.172722,0.013747,0.204090,-0.011993,-0.036006,-0.032332,0.014503,-0.196318
# mode = 0
# plane_normal = 0.000000,0.000000,0.000000
# ubconf = UBmatrix-MnWO4-final.dat
# preset_type = normal 
# preset_channel = mcu
# preset_value = 2.000000
# def_x = omega
# def_y = detector
# col_headers = 
#   Pt.      omega       time   detector    monitor        mcu         m2        chi        phi     2theta   slitb_bt   slitb_lf   slitb_rt   slitb_tp   slita_bt   slita_lf   slita_rt   slita_tp         a1         a2          h          k          l          e         ei    coldtip     sample       temp
      1   -18.0002      1.900      6.000  38601.000      2.000    41.5367   -26.8205  -168.3759   -38.9931    20.0000     5.0000     4.0000    24.0000    22.0000     4.0000     4.0000    22.0000    20.7702    41.5152    -0.2816     1.4769    -0.4889     0.0000    14.4503    13.3783    18.4258    13.400
      2   -18.1500      1.906      7.000  38601.000      2.000    41.5367   -26.8205  -168.3759   -38.9931    20.0000     5.0000     4.0000    24.0000    22.0000     4.0000     4.0000    22.0000    20.7702    41.5152    -0.2782     1.4776    -0.4894     0.0000    14.4503    13.3937    18.4303    13.400
      3   -18.3000      1.914      7.000  38601.000      2.000    41.5367   -26.8205  -168.3759   -38.9931    20.0000     5.0000     4.0000    24.0000    22.0000     4.0000     4.0000    22.0000    20.7702    41.5152    -0.2747     1.4782    -0.4900     0.0000    14.4503    13.3852    18.4341    13.400
      4   -18.4499      1.898      6.000  38601.000      2.000    41.5367   -26.8205  -168.3759   -38.9931    20.0000     5.0000     4.0000    24.0000    22.0000     4.0000     4.0000    22.0000    20.7702    41.5152    -0.2713     1.4788    -0.4905     0.0000    14.4503    13.3820    18.4363    13.400
      5   -18.5992      1.890      9.000  38601.000      2.000    41.5367   -26.8205  -168.3759   -38.9931    20.0000     5.0000     4.0000    24.0000    22.0000     4.0000     4.0000    22.0000    20.7702    41.5152    -0.2679     1.4795    -0.4911     0.0000    14.4503    13.3964    18.4411    13.400
      6   -18.7495      1.905      8.000  38601.000      2.000    41.5367   -26.8205  -168.3759   -38.9931    20.0000     5.0000     4.0000    24.0000    22.0000     4.0000     4.0000    22.0000    20.7702    41.5152    -0.2644     1.4801    -0.4916     0.0000    14.4503    13.3821    18.4450    13.400
      7   -18.8998      1.887      8.000  38601.000      2.000    41.5367   -26.8205  -168.3759   -38.9931    20.0000     5.0000     4.0000    24.0000    22.0000     4.0000     4.0000    22.0000    20.7702    41.5152    -0.2609     1.4807    -0.4922     0.0000    14.4503    13.3960    18.4468    13.400
      8   -19.0504      1.904      9.000  38601.000      2.000    41.5367   -26.8205  -168.3759   -38.9931    20.0000     5.0000     4.0000    24.0000    22.0000     4.0000     4.0000    22.0000    20.7702    41.5152    -0.2575     1.4813    -0.4927     0.0000    14.4503    13.3823    18.4530    13.400
      9   -19.1998      1.894      5.000  38601.000      2.000    41.5367   -26.8205  -168.3759   -38.9931    20.0000     5.0000     4.0000    24.0000    22.0000     4.0000     4.0000    22.0000    20.7702    41.5152    -0.2540     1.4819    -0.4933     0.0000    14.4503    13.3958    18.4559    13.400
     10   -19.3497      1.913     11.000  38601.000      2.000    41.5367   -26.8205  -168.3759   -38.9932    20.0000     5.0000     4.0000    24.0000    22.0000     4.0000     4.0000    22.0000    20.7702    41.5152    -0.2506     1.4824    -0.4938     0.0000    14.4503    13.3930    18.4616    13.400
     11   -19.4994      1.921      8.000  38601.000      2.000    41.5367   -26.8205  -168.3759   -38.9931    20.0000     5.0000     4.0000    24.0000    22.0000     4.0000     4.0000    22.0000    20.7702    41.5152    -0.2471     1.4830    -0.4943     0.0000    14.4503    13.3932    18.4661    13.400
     12   -19.6495      1.920     10.000  38601.000      2.000    41.5367   -26.8205  -168.3759   -38.9931    20.0000     5.0000     4.0000    24.0000    22.0000     4.0000     4.0000    22.0000    20.7702    41.5152    -0.2436     1.4836    -0.4949     0.0000    14.4503    13.4010    18.4681    13.400
     13   -19.7993      1.895     12.000  38601.000      2.000    41.5367   -26.8205  -168.3759   -38.9931    20.0000     5.0000     4.0000    24.0000    22.0000     4.0000     4.0000    22.0000    20.7702    41.5152    -0.2402     1.4841    -0.4954     0.0000    14.4503    13.3937    18.4713    13.400
     14   -19.9503      1.896     11.000  38601.000      2.000    41.5367   -26.8205  -168.3759   -38.9931    20.0000     5.0000     4.0000    24.0000    22.0000     4.0000     4.0000    22.0000    20.7702    41.5152    -0.2367     1.4846    -0.4959     0.0000    14.4503    13.3878    18.4721    13.400
     15   -20.1002      1.914     11.000  38601.000      2.000    41.5367   -26.8205  -168.3759   -38.9931    20.0000     5.0000     4.0000    24.0000    22.0000     4.0000     4.0000    22.0000    20.7702    41.5152    -0.2332     1.4852    -0.4964     0.0000    14.4503    13.4001    18.4771    13.400
     16   -20.2499      1.900     18.000  38601.000      2.000    41.5367   -26.8205  -168.3759   -38.9931    20.0000     5.0000     4.0000    24.0000    22.0000     4.0000     4.0000    22.0000    20.7702    41.5152    -0.2298     1.4857    -0.4969     0.0000    14.4503    13.3952    18.4789    13.400
     17   -20.3994      1.902     21.000  38601.000      2.000    41.5367   -26.8205  -168.3759   -38.9931    20.0000     5.0000     4.0000    24.0000    22.0000     4.0000     4.0000    22.0000    20.7702    41.5152    -0.2263     1.4862    -0.4974     0.0000    14.4503    13.3905    18.4820    13.400
     18   -20.5497      1.904     13.000  38601.000      2.000    41.5367   -26.8205  -168.3759   -38.9931    20.0000     5.0000     4.0000    24.0000    22.0000     4.0000     4.0000    22.0000    20.7702    41.5152    -0.2228     1.4867    -0.4980     0.0000    14.4503    13.3992    18.4848    13.400
     19   -20.6991      1.905     16.000  38601.000      2.000    41.5367   -26.8205  -168.3759   -38.9931    20.0000     5.0000     4.0000    24.0000    22.0000     4.0000     4.0000    22.0000    20.7702    41.5152    -0.2193     1.4871    -0.4985     0.0000    14.4503    13.3892    18.4890    13.400
     20   -20.8497      1.912      9.000  38601.000      2.000    41.5367   -26.8205  -168.3759   -38.9931    20.0000     5.0000     4.0000    24.0000    22.0000     4.0000     4.0000    22.0000    20.7702    41.5152    -0.2159     1.4876    -0.4990     0.0000    14.4503    13.3924    18.4914    13.400
     21   -21.0002      1.910     19.000  38601.000      2.000    41.5367   -26.8205  -168.3759   -38.9931    20.0000     5.0000     4.0000    24.0000    22.0000     4.0000     4.0000    22.0000    20.7702    41.5152    -0.2124     1.4881    -0.4995     0.0000    14.4503    13.4062    18.4925    13.400
     22   -21.1502      1.891     11.000  38601.000      2.000    41.5367   -26.8205  -168.3759   -38.9931    20.0000     5.0000     4.0000    24.0000    22.0000     4.0000     4.0000    22.0000    20.7702    41.5152    -0.2089     1.4885    -0.4999     0.0000    14.4503    13.3914    18.4945    13.400
     23   -21.2996      1.889     15.000  38601.000      2.000    41.5367   -26.8205  -168.3759   -38.9931    20.0000     5.0000     4.0000    24.0000    22.0000     4.0000     4.0000    22.0000    20.7702    41.5152    -0.2054     1.4890    -0.5004     0.0000    14.4503    13.3942    18.4965    13.400
     24   -21.4499      1.892      4.000  38601.000      2.000    41.5367   -26.8205  -168.3759   -38.9931    20.0000     5.0000     4.0000    24.0000    22.0000     4.0000     4.0000    22.0000    20.7702    41.5152    -0.2019     1.4894    -0.5009     0.0000    14.4503    13.3955    18.5007    13.400
     25   -21.5991      1.892      6.000  38601.000      2.000    41.5367   -26.8205  -168.3759   -38.9931    20.0000     5.0000     4.0000    24.0000    22.0000     4.0000     4.0000    22.0000    20.7702    41.5152    -0.1985     1.4898    -0.5014     0.0000    14.4503    13.3919    18.5044    13.400
# Sum of Counts = 260
# Center of Mass = -19.995320+/-1.754750
# Full Width Half-Maximum = 1.951871+/-0.687349
# 9:19:48 PM  2/22/2025   scan completed.
