# scan = 833
# date = 2/22/2025
# time = 9:32:14 PM
# proposal = 33477
# experiment = Commissioning and enabling the 4-circle capability at VERITAS
# experiment_number = 1046
# command = scan omega -18 -21.6 0.15
# builtin_command = scan omega -18 -21.6 0.15
# users = Feng Ye, Mike McDowell, Jiasen Guo, Adam Aczel, Kaleb Burrage, Wei Tian, Bing Li, Zachary Morgan
# local_contact = Wei Tian
# scan_title = MnWO4, (0.25 -1.5 0.5) & (0.216 -1.5 0.458) OP, at T = 14.7942 K, warming up
# monochromator = PG002
# analyzer = Pg002
# sense = +-+
# collimation = 40-40-40-80
# samplename = La2Ni7, MnWO4
# sampletype = crystal
# samplemosaic = 30.000000
# latticeconstants = 4.824069,5.755582,4.999231,89.932854,88.939129,90.018476
# ubmatrix = 0.016958,0.172722,0.013747,0.204090,-0.011993,-0.036006,-0.032332,0.014503,-0.196318
# mode = 0
# plane_normal = 0.000000,0.000000,0.000000
# ubconf = UBmatrix-MnWO4-final.dat
# preset_type = normal 
# preset_channel = mcu
# preset_value = 2.000000
# def_x = omega
# def_y = detector
# col_headers = 
#   Pt.      omega       time   detector    monitor        mcu         m2        chi        phi     2theta   slitb_bt   slitb_lf   slitb_rt   slitb_tp   slita_bt   slita_lf   slita_rt   slita_tp         a1         a2          h          k          l          e         ei    coldtip     sample       temp
      1   -18.0002      1.889      3.000  38601.000      2.000    41.5367   -26.8205  -168.3759   -38.9932    20.0000     5.0000     4.0000    24.0000    22.0000     4.0000     4.0000    22.0000    20.7702    41.5152    -0.2816     1.4769    -0.4889     0.0000    14.4503    14.7994    19.4388    14.800
      2   -18.1500      1.910      7.000  38601.000      2.000    41.5367   -26.8205  -168.3759   -38.9932    20.0000     5.0000     4.0000    24.0000    22.0000     4.0000     4.0000    22.0000    20.7702    41.5152    -0.2782     1.4776    -0.4894     0.0000    14.4503    14.7991    19.4420    14.800
      3   -18.2998      1.918      6.000  38601.000      2.000    41.5367   -26.8205  -168.3759   -38.9932    20.0000     5.0000     4.0000    24.0000    22.0000     4.0000     4.0000    22.0000    20.7702    41.5152    -0.2747     1.4782    -0.4900     0.0000    14.4503    14.7962    19.4421    14.800
      4   -18.4499      1.893      6.000  38601.000      2.000    41.5367   -26.8205  -168.3759   -38.9932    20.0000     5.0000     4.0000    24.0000    22.0000     4.0000     4.0000    22.0000    20.7702    41.5152    -0.2713     1.4788    -0.4905     0.0000    14.4503    14.8023    19.4473    14.800
      5   -18.5992      1.886      4.000  38601.000      2.000    41.5367   -26.8205  -168.3759   -38.9932    20.0000     5.0000     4.0000    24.0000    22.0000     4.0000     4.0000    22.0000    20.7702    41.5152    -0.2679     1.4795    -0.4911     0.0000    14.4503    14.7971    19.4476    14.800
      6   -18.7495      1.907      6.000  38601.000      2.000    41.5367   -26.8205  -168.3759   -38.9932    20.0000     5.0000     4.0000    24.0000    22.0000     4.0000     4.0000    22.0000    20.7702    41.5152    -0.2644     1.4801    -0.4916     0.0000    14.4503    14.8068    19.4503    14.800
      7   -18.8999      1.902      7.000  38601.000      2.000    41.5367   -26.8205  -168.3759   -38.9932    20.0000     5.0000     4.0000    24.0000    22.0000     4.0000     4.0000    22.0000    20.7702    41.5152    -0.2609     1.4807    -0.4922     0.0000    14.4503    14.7926    19.4547    14.800
      8   -19.0504      1.906      4.000  38601.000      2.000    41.5367   -26.8205  -168.3759   -38.9932    20.0000     5.0000     4.0000    24.0000    22.0000     4.0000     4.0000    22.0000    20.7702    41.5152    -0.2575     1.4813    -0.4927     0.0000    14.4503    14.8076    19.4572    14.800
      9   -19.1999      1.904     10.000  38601.000      2.000    41.5367   -26.8205  -168.3759   -38.9932    20.0000     5.0000     4.0000    24.0000    22.0000     4.0000     4.0000    22.0000    20.7702    41.5152    -0.2540     1.4819    -0.4933     0.0000    14.4503    14.7981    19.4594    14.800
     10   -19.3496      1.906      4.000  38601.000      2.000    41.5367   -26.8205  -168.3759   -38.9932    20.0000     5.0000     4.0000    24.0000    22.0000     4.0000     4.0000    22.0000    20.7702    41.5152    -0.2506     1.4824    -0.4938     0.0000    14.4503    14.7950    19.4620    14.800
     11   -19.4992      1.893      6.000  38601.000      2.000    41.5367   -26.8205  -168.3759   -38.9932    20.0000     5.0000     4.0000    24.0000    22.0000     4.0000     4.0000    22.0000    20.7702    41.5152    -0.2471     1.4830    -0.4943     0.0000    14.4503    14.8086    19.4656    14.800
     12   -19.6495      1.903      7.000  38601.000      2.000    41.5367   -26.8205  -168.3759   -38.9932    20.0000     5.0000     4.0000    24.0000    22.0000     4.0000     4.0000    22.0000    20.7702    41.5152    -0.2436     1.4836    -0.4949     0.0000    14.4503    14.7961    19.4695    14.800
     13   -19.7992      1.906      4.000  38601.000      2.000    41.5367   -26.8205  -168.3759   -38.9932    20.0000     5.0000     4.0000    24.0000    22.0000     4.0000     4.0000    22.0000    20.7702    41.5152    -0.2402     1.4841    -0.4954     0.0000    14.4503    14.8045    19.4730    14.800
     14   -19.9505      1.896     12.000  38601.000      2.000    41.5367   -26.8205  -168.3759   -38.9932    20.0000     5.0000     4.0000    24.0000    22.0000     4.0000     4.0000    22.0000    20.7702    41.5152    -0.2367     1.4846    -0.4959     0.0000    14.4503    14.8029    19.4754    14.800
     15   -20.0999      1.883     11.000  38601.000      2.000    41.5367   -26.8205  -168.3759   -38.9932    20.0000     5.0000     4.0000    24.0000    22.0000     4.0000     4.0000    22.0000    20.7702    41.5152    -0.2332     1.4852    -0.4964     0.0000    14.4503    14.7973    19.4765    14.800
     16   -20.2500      1.896     17.000  38601.000      2.000    41.5367   -26.8205  -168.3759   -38.9932    20.0000     5.0000     4.0000    24.0000    22.0000     4.0000     4.0000    22.0000    20.7702    41.5152    -0.2297     1.4857    -0.4969     0.0000    14.4503    14.8091    19.4752    14.800
     17   -20.3995      1.895      4.000  38601.000      2.000    41.5367   -26.8205  -168.3759   -38.9932    20.0000     5.0000     4.0000    24.0000    22.0000     4.0000     4.0000    22.0000    20.7702    41.5152    -0.2263     1.4862    -0.4974     0.0000    14.4503    14.7961    19.4788    14.800
     18   -20.5497      1.905      5.000  38601.000      2.000    41.5367   -26.8205  -168.3759   -38.9932    20.0000     5.0000     4.0000    24.0000    22.0000     4.0000     4.0000    22.0000    20.7702    41.5152    -0.2228     1.4867    -0.4980     0.0000    14.4503    14.8000    19.4815    14.800
     19   -20.6994      1.894     12.000  38601.000      2.000    41.5367   -26.8205  -168.3759   -38.9932    20.0000     5.0000     4.0000    24.0000    22.0000     4.0000     4.0000    22.0000    20.7702    41.5152    -0.2193     1.4871    -0.4985     0.0000    14.4503    14.8103    19.4853    14.800
     20   -20.8499      1.915      5.000  38601.000      2.000    41.5367   -26.8205  -168.3759   -38.9932    20.0000     5.0000     4.0000    24.0000    22.0000     4.0000     4.0000    22.0000    20.7702    41.5152    -0.2159     1.4876    -0.4990     0.0000    14.4503    14.7983    19.4845    14.800
     21   -21.0004      1.889      3.000  38601.000      2.000    41.5367   -26.8205  -168.3759   -38.9932    20.0000     5.0000     4.0000    24.0000    22.0000     4.0000     4.0000    22.0000    20.7702    41.5152    -0.2124     1.4881    -0.4995     0.0000    14.4503    14.8057    19.4857    14.800
     22   -21.1501      1.929      7.000  38601.000      2.000    41.5367   -26.8205  -168.3759   -38.9932    20.0000     5.0000     4.0000    24.0000    22.0000     4.0000     4.0000    22.0000    20.7702    41.5152    -0.2089     1.4885    -0.4999     0.0000    14.4503    14.7984    19.4877    14.800
     23   -21.2999      1.912      5.000  38601.000      2.000    41.5367   -26.8205  -168.3759   -38.9932    20.0000     5.0000     4.0000    24.0000    22.0000     4.0000     4.0000    22.0000    20.7702    41.5152    -0.2054     1.4890    -0.5004     0.0000    14.4503    14.8024    19.4903    14.800
     24   -21.4500      1.890      7.000  38601.000      2.000    41.5367   -26.8205  -168.3759   -38.9932    20.0000     5.0000     4.0000    24.0000    22.0000     4.0000     4.0000    22.0000    20.7702    41.5152    -0.2019     1.4894    -0.5009     0.0000    14.4503    14.8109    19.4927    14.800
     25   -21.5991      1.893      6.000  38601.000      2.000    41.5367   -26.8205  -168.3759   -38.9932    20.0000     5.0000     4.0000    24.0000    22.0000     4.0000     4.0000    22.0000    20.7702    41.5152    -0.1985     1.4898    -0.5014     0.0000    14.4503    14.8111    19.4964    14.800
# Sum of Counts = 168
# Center of Mass = -19.875709+/-2.169995
# Full Width Half-Maximum = 2.003885+/-0.858652
# 9:33:39 PM  2/22/2025   scan completed.
